# Conditions: NA =  10  NB =  20  Chi =  0.3
# Spinordal_1 =  0.185666510612  Spinordal_2 =  0.897666822722
# Binordal_1 =  0.993225525988 Binordal_2 = 0.0384811113975
#
# tangent line: y=ax + b, a=  0.00311460950916 , b =  -0.00344187025163
#  0.00311460950916  * x +  -0.00344187025163
#
# Free Energy
# Phi 	Free Energy
0.001 	-0.000441050519561
0.002 	-0.000744021552951
0.003 	-0.000995217671756
0.004 	-0.00121298383274
0.005 	-0.001406032639
0.006 	-0.00157949568043
0.007 	-0.00173676372257
0.008 	-0.00188024670603
0.009 	-0.002011746529
0.01 	-0.00213266181074
0.011 	-0.00224410985373
0.012 	-0.00234700386801
0.013 	-0.0024421042697
0.014 	-0.00253005410102
0.015 	-0.00261140427896
0.016 	-0.00268663208174
0.017 	-0.00275615499611
0.018 	-0.00282034129577
0.019 	-0.00287951826204
0.02 	-0.00293397866941
0.021 	-0.00298398597095
0.022 	-0.0030297784939
0.023 	-0.00307157287101
0.024 	-0.00310956687409
0.025 	-0.00314394177452
0.026 	-0.00317486432554
0.027 	-0.00320248843917
0.028 	-0.00322695661441
0.029 	-0.00324840116113
0.03 	-0.00326694525497
0.031 	-0.00328270385152
0.032 	-0.00329578448233
0.033 	-0.00330628795142
0.034 	-0.00331430894722
0.035 	-0.00331993658251
0.036 	-0.0033232548726
0.037 	-0.00332434316036
0.038 	-0.00332327649519
0.039 	-0.00332012597219
0.04 	-0.00331495903645
0.041 	-0.00330783975687
0.042 	-0.00329882907337
0.043 	-0.00328798502041
0.044 	-0.00327536292977
0.045 	-0.0032610156149
0.046 	-0.00324499353883
0.047 	-0.00322734496755
0.048 	-0.00320811611024
0.049 	-0.00318735124784
0.05 	-0.00316509285118
0.051 	-0.00314138168958
0.052 	-0.00311625693095
0.053 	-0.00308975623422
0.054 	-0.00306191583476
0.055 	-0.00303277062345
0.056 	-0.00300235422007
0.057 	-0.00297069904138
0.058 	-0.00293783636444
0.059 	-0.00290379638557
0.06 	-0.00286860827531
0.061 	-0.00283230022972
0.062 	-0.00279489951828
0.063 	-0.00275643252876
0.064 	-0.0027169248092
0.065 	-0.00267640110723
0.066 	-0.00263488540709
0.067 	-0.00259240096425
0.068 	-0.0025489703381
0.069 	-0.00250461542263
0.07 	-0.00245935747535
0.071 	-0.0024132171446
0.072 	-0.00236621449525
0.073 	-0.00231836903303
0.074 	-0.00226969972751
0.075 	-0.00222022503382
0.076 	-0.00216996291322
0.077 	-0.00211893085261
0.078 	-0.002067145883
0.079 	-0.00201462459704
0.08 	-0.00196138316566
0.081 	-0.00190743735389
0.082 	-0.00185280253589
0.083 	-0.00179749370921
0.084 	-0.00174152550847
0.085 	-0.00168491221826
0.086 	-0.0016276677855
0.087 	-0.00156980583122
0.088 	-0.00151133966183
0.089 	-0.00145228227977
0.09 	-0.00139264639381
0.091 	-0.00133244442881
0.092 	-0.00127168853507
0.093 	-0.00121039059733
0.094 	-0.00114856224324
0.095 	-0.00108621485165
0.096 	-0.0010233595604
0.097 	-0.000960007273911
0.098 	-0.000896168670323
0.099 	-0.00083185420848
0.1 	-0.000767074134543
0.101 	-0.000701838488371
0.102 	-0.000636157109647
0.103 	-0.000570039643763
0.104 	-0.000503495547467
0.105 	-0.000436534094309
0.106 	-0.000369164379868
0.107 	-0.000301395326783
0.108 	-0.0002332356896
0.109 	-0.000164694059437
0.11 	-9.57788684768e-05
0.111 	-2.64983942977e-05
0.112 	4.31392359506e-05
0.113 	0.000113126041523
0.114 	0.000183454184197
0.115 	0.000254115964524
0.116 	0.000325103818214
0.117 	0.000396410312646
0.118 	0.000468028143493
0.119 	0.000539950131465
0.12 	0.000612169219164
0.121 	0.000684678468035
0.122 	0.000757471055429
0.123 	0.000830540271754
0.124 	0.00090387951772
0.125 	0.000977482301679
0.126 	0.00105134223704
0.127 	0.00112545303978
0.128 	0.00119980852601
0.129 	0.00127440260965
0.13 	0.00134922930015
0.131 	0.00142428270028
0.132 	0.00149955700401
0.133 	0.00157504649445
0.134 	0.00165074554181
0.135 	0.00172664860149
0.136 	0.00180275021216
0.137 	0.00187904499396
0.138 	0.00195552764669
0.139 	0.0020321929481
0.14 	0.00210903575219
0.141 	0.00218605098763
0.142 	0.00226323365609
0.143 	0.0023405788308
0.144 	0.00241808165498
0.145 	0.00249573734042
0.146 	0.00257354116604
0.147 	0.00265148847654
0.148 	0.00272957468106
0.149 	0.00280779525186
0.15 	0.00288614572306
0.151 	0.0029646216894
0.152 	0.00304321880507
0.153 	0.0031219327825
0.154 	0.00320075939124
0.155 	0.00327969445687
0.156 	0.00335873385987
0.157 	0.00343787353463
0.158 	0.00351710946836
0.159 	0.00359643770015
0.16 	0.00367585431995
0.161 	0.00375535546764
0.162 	0.0038349373321
0.163 	0.00391459615032
0.164 	0.0039943282065
0.165 	0.00407412983117
0.166 	0.00415399740042
0.167 	0.004233927335
0.168 	0.00431391609958
0.169 	0.00439396020194
0.17 	0.00447405619221
0.171 	0.00455420066215
0.172 	0.00463439024439
0.173 	0.00471462161174
0.174 	0.0047948914765
0.175 	0.00487519658977
0.176 	0.00495553374079
0.177 	0.00503589975632
0.178 	0.00511629149996
0.179 	0.00519670587157
0.18 	0.00527713980667
0.181 	0.0053575902758
0.182 	0.00543805428401
0.183 	0.00551852887024
0.184 	0.0055990111068
0.185 	0.00567949809882
0.186 	0.00575998698373
0.187 	0.00584047493071
0.188 	0.00592095914023
0.189 	0.00600143684352
0.19 	0.0060819053021
0.191 	0.00616236180732
0.192 	0.00624280367985
0.193 	0.00632322826927
0.194 	0.00640363295361
0.195 	0.00648401513891
0.196 	0.00656437225878
0.197 	0.00664470177402
0.198 	0.00672500117217
0.199 	0.00680526796713
0.2 	0.00688549969875
0.201 	0.00696569393247
0.202 	0.00704584825893
0.203 	0.00712596029356
0.204 	0.0072060276763
0.205 	0.00728604807117
0.206 	0.00736601916595
0.207 	0.00744593867184
0.208 	0.00752580432312
0.209 	0.00760561387681
0.21 	0.00768536511236
0.211 	0.00776505583135
0.212 	0.00784468385713
0.213 	0.00792424703457
0.214 	0.00800374322972
0.215 	0.00808317032954
0.216 	0.0081625262416
0.217 	0.0082418088938
0.218 	0.00832101623411
0.219 	0.00840014623026
0.22 	0.0084791968695
0.221 	0.00855816615835
0.222 	0.0086370521223
0.223 	0.00871585280559
0.224 	0.00879456627096
0.225 	0.00887319059939
0.226 	0.00895172388987
0.227 	0.00903016425918
0.228 	0.00910850984161
0.229 	0.00918675878881
0.23 	0.00926490926947
0.231 	0.00934295946919
0.232 	0.00942090759023
0.233 	0.00949875185127
0.234 	0.00957649048724
0.235 	0.00965412174911
0.236 	0.00973164390367
0.237 	0.00980905523336
0.238 	0.00988635403605
0.239 	0.00996353862486
0.24 	0.010040607328
0.241 	0.0101175584884
0.242 	0.010194390464
0.243 	0.010271101627
0.244 	0.0103476903641
0.245 	0.0104241550759
0.246 	0.0105004941772
0.247 	0.0105767060968
0.248 	0.0106527892769
0.249 	0.0107287421733
0.25 	0.0108045632551
0.251 	0.0108802510046
0.252 	0.0109558039173
0.253 	0.0110312205013
0.254 	0.0111064992777
0.255 	0.01118163878
0.256 	0.0112566375544
0.257 	0.011331494159
0.258 	0.0114062071645
0.259 	0.0114807751533
0.26 	0.0115551967199
0.261 	0.0116294704703
0.262 	0.0117035950225
0.263 	0.0117775690057
0.264 	0.0118513910606
0.265 	0.0119250598391
0.266 	0.0119985740042
0.267 	0.0120719322299
0.268 	0.0121451332012
0.269 	0.0122181756137
0.27 	0.0122910581738
0.271 	0.0123637795982
0.272 	0.0124363386143
0.273 	0.0125087339597
0.274 	0.012580964382
0.275 	0.0126530286392
0.276 	0.0127249254991
0.277 	0.0127966537394
0.278 	0.0128682121477
0.279 	0.012939599521
0.28 	0.0130108146662
0.281 	0.0130818563995
0.282 	0.0131527235465
0.283 	0.0132234149421
0.284 	0.0132939294303
0.285 	0.0133642658644
0.286 	0.0134344231064
0.287 	0.0135044000276
0.288 	0.0135741955077
0.289 	0.0136438084356
0.29 	0.0137132377083
0.291 	0.013782482232
0.292 	0.0138515409207
0.293 	0.0139204126974
0.294 	0.0139890964931
0.295 	0.0140575912471
0.296 	0.0141258959067
0.297 	0.0141940094276
0.298 	0.0142619307732
0.299 	0.0143296589151
0.3 	0.0143971928324
0.301 	0.0144645315122
0.302 	0.0145316739494
0.303 	0.0145986191463
0.304 	0.0146653661128
0.305 	0.0147319138663
0.306 	0.0147982614318
0.307 	0.0148644078414
0.308 	0.0149303521345
0.309 	0.0149960933579
0.31 	0.0150616305654
0.311 	0.0151269628179
0.312 	0.0151920891833
0.313 	0.0152570087366
0.314 	0.0153217205594
0.315 	0.0153862237404
0.316 	0.015450517375
0.317 	0.0155146005653
0.318 	0.0155784724199
0.319 	0.0156421320544
0.32 	0.0157055785904
0.321 	0.0157688111563
0.322 	0.015831828887
0.323 	0.0158946309235
0.324 	0.0159572164133
0.325 	0.0160195845101
0.326 	0.0160817343738
0.327 	0.0161436651704
0.328 	0.0162053760722
0.329 	0.0162668662572
0.33 	0.0163281349098
0.331 	0.01638918122
0.332 	0.0164500043839
0.333 	0.0165106036035
0.334 	0.0165709780863
0.335 	0.0166311270459
0.336 	0.0166910497014
0.337 	0.0167507452776
0.338 	0.0168102130049
0.339 	0.0168694521194
0.34 	0.0169284618626
0.341 	0.0169872414815
0.342 	0.0170457902284
0.343 	0.0171041073614
0.344 	0.0171621921434
0.345 	0.0172200438431
0.346 	0.0172776617341
0.347 	0.0173350450956
0.348 	0.0173921932116
0.349 	0.0174491053714
0.35 	0.0175057808695
0.351 	0.0175622190055
0.352 	0.0176184190837
0.353 	0.0176743804137
0.354 	0.01773010231
0.355 	0.017785584092
0.356 	0.0178408250839
0.357 	0.0178958246148
0.358 	0.0179505820187
0.359 	0.0180050966342
0.36 	0.0180593678047
0.361 	0.0181133948784
0.362 	0.0181671772081
0.363 	0.0182207141512
0.364 	0.0182740050696
0.365 	0.0183270493301
0.366 	0.0183798463037
0.367 	0.018432395366
0.368 	0.0184846958973
0.369 	0.0185367472819
0.37 	0.018588548909
0.371 	0.0186401001717
0.372 	0.0186914004679
0.373 	0.0187424491994
0.374 	0.0187932457727
0.375 	0.0188437895981
0.376 	0.0188940800906
0.377 	0.0189441166691
0.378 	0.0189938987567
0.379 	0.0190434257808
0.38 	0.0190926971728
0.381 	0.0191417123682
0.382 	0.0191904708065
0.383 	0.0192389719315
0.384 	0.0192872151906
0.385 	0.0193352000356
0.386 	0.019382925922
0.387 	0.0194303923093
0.388 	0.0194775986609
0.389 	0.0195245444441
0.39 	0.0195712291302
0.391 	0.019617652194
0.392 	0.0196638131144
0.393 	0.019709711374
0.394 	0.0197553464592
0.395 	0.01980071786
0.396 	0.0198458250704
0.397 	0.0198906675877
0.398 	0.0199352449133
0.399 	0.0199795565519
0.4 	0.0200236020121
0.401 	0.0200673808059
0.402 	0.020110892449
0.403 	0.0201541364606
0.404 	0.0201971123636
0.405 	0.0202398196843
0.406 	0.0202822579525
0.407 	0.0203244267014
0.408 	0.0203663254679
0.409 	0.0204079537922
0.41 	0.0204493112179
0.411 	0.0204903972921
0.412 	0.0205312115653
0.413 	0.0205717535912
0.414 	0.0206120229269
0.415 	0.0206520191331
0.416 	0.0206917417735
0.417 	0.0207311904152
0.418 	0.0207703646287
0.419 	0.0208092639875
0.42 	0.0208478880686
0.421 	0.0208862364521
0.422 	0.0209243087213
0.423 	0.0209621044628
0.424 	0.0209996232663
0.425 	0.0210368647247
0.426 	0.021073828434
0.427 	0.0211105139934
0.428 	0.021146921005
0.429 	0.0211830490744
0.43 	0.02121889781
0.431 	0.0212544668232
0.432 	0.0212897557287
0.433 	0.0213247641441
0.434 	0.0213594916901
0.435 	0.0213939379903
0.436 	0.0214281026713
0.437 	0.0214619853629
0.438 	0.0214955856977
0.439 	0.0215289033111
0.44 	0.0215619378418
0.441 	0.0215946889312
0.442 	0.0216271562237
0.443 	0.0216593393664
0.444 	0.0216912380096
0.445 	0.0217228518064
0.446 	0.0217541804126
0.447 	0.021785223487
0.448 	0.0218159806911
0.449 	0.0218464516895
0.45 	0.0218766361494
0.451 	0.0219065337409
0.452 	0.0219361441367
0.453 	0.0219654670126
0.454 	0.0219945020469
0.455 	0.0220232489209
0.456 	0.0220517073184
0.457 	0.0220798769262
0.458 	0.0221077574336
0.459 	0.0221353485328
0.46 	0.0221626499186
0.461 	0.0221896612885
0.462 	0.0222163823427
0.463 	0.0222428127842
0.464 	0.0222689523185
0.465 	0.0222948006538
0.466 	0.0223203575011
0.467 	0.0223456225738
0.468 	0.0223705955881
0.469 	0.0223952762629
0.47 	0.0224196643194
0.471 	0.0224437594817
0.472 	0.0224675614764
0.473 	0.0224910700327
0.474 	0.0225142848824
0.475 	0.0225372057597
0.476 	0.0225598324017
0.477 	0.0225821645478
0.478 	0.02260420194
0.479 	0.0226259443229
0.48 	0.0226473914436
0.481 	0.0226685430516
0.482 	0.0226893988992
0.483 	0.0227099587409
0.484 	0.022730222334
0.485 	0.0227501894381
0.486 	0.0227698598154
0.487 	0.0227892332304
0.488 	0.0228083094504
0.489 	0.0228270882448
0.49 	0.0228455693858
0.491 	0.0228637526478
0.492 	0.0228816378078
0.493 	0.0228992246453
0.494 	0.0229165129421
0.495 	0.0229335024824
0.496 	0.0229501930531
0.497 	0.0229665844432
0.498 	0.0229826764443
0.499 	0.0229984688505
0.5 	0.023013961458
0.501 	0.0230291540657
0.502 	0.0230440464749
0.503 	0.023058638489
0.504 	0.0230729299141
0.505 	0.0230869205586
0.506 	0.0231006102331
0.507 	0.0231139987509
0.508 	0.0231270859274
0.509 	0.0231398715806
0.51 	0.0231523555306
0.511 	0.0231645376
0.512 	0.0231764176138
0.513 	0.0231879953993
0.514 	0.0231992707862
0.515 	0.0232102436065
0.516 	0.0232209136945
0.517 	0.023231280887
0.518 	0.0232413450229
0.519 	0.0232511059437
0.52 	0.0232605634929
0.521 	0.0232697175168
0.522 	0.0232785678635
0.523 	0.0232871143838
0.524 	0.0232953569307
0.525 	0.0233032953595
0.526 	0.0233109295278
0.527 	0.0233182592957
0.528 	0.0233252845253
0.529 	0.0233320050812
0.53 	0.0233384208304
0.531 	0.0233445316419
0.532 	0.0233503373874
0.533 	0.0233558379406
0.534 	0.0233610331777
0.535 	0.023365922977
0.536 	0.0233705072192
0.537 	0.0233747857874
0.538 	0.023378758567
0.539 	0.0233824254454
0.54 	0.0233857863126
0.541 	0.0233888410609
0.542 	0.0233915895847
0.543 	0.0233940317809
0.544 	0.0233961675485
0.545 	0.0233979967889
0.546 	0.0233995194059
0.547 	0.0234007353054
0.548 	0.0234016443957
0.549 	0.0234022465875
0.55 	0.0234025417935
0.551 	0.0234025299291
0.552 	0.0234022109116
0.553 	0.0234015846608
0.554 	0.0234006510989
0.555 	0.0233994101503
0.556 	0.0233978617415
0.557 	0.0233960058017
0.558 	0.0233938422621
0.559 	0.0233913710563
0.56 	0.0233885921203
0.561 	0.0233855053923
0.562 	0.0233821108128
0.563 	0.0233784083246
0.564 	0.0233743978731
0.565 	0.0233700794056
0.566 	0.023365452872
0.567 	0.0233605182244
0.568 	0.0233552754172
0.569 	0.0233497244074
0.57 	0.0233438651539
0.571 	0.0233376976183
0.572 	0.0233312217644
0.573 	0.0233244375582
0.574 	0.0233173449684
0.575 	0.0233099439656
0.576 	0.0233022345232
0.577 	0.0232942166166
0.578 	0.0232858902237
0.579 	0.0232772553249
0.58 	0.0232683119026
0.581 	0.0232590599419
0.582 	0.0232494994303
0.583 	0.0232396303573
0.584 	0.0232294527152
0.585 	0.0232189664985
0.586 	0.0232081717041
0.587 	0.0231970683313
0.588 	0.0231856563819
0.589 	0.0231739358598
0.59 	0.0231619067718
0.591 	0.0231495691267
0.592 	0.023136922936
0.593 	0.0231239682134
0.594 	0.0231107049752
0.595 	0.02309713324
0.596 	0.0230832530291
0.597 	0.023069064366
0.598 	0.0230545672768
0.599 	0.02303976179
0.6 	0.0230246479366
0.601 	0.02300922575
0.602 	0.0229934952663
0.603 	0.0229774565239
0.604 	0.0229611095637
0.605 	0.0229444544293
0.606 	0.0229274911667
0.607 	0.0229102198243
0.608 	0.0228926404533
0.609 	0.0228747531071
0.61 	0.0228565578421
0.611 	0.0228380547168
0.612 	0.0228192437925
0.613 	0.0228001251331
0.614 	0.022780698805
0.615 	0.0227609648773
0.616 	0.0227409234216
0.617 	0.0227205745121
0.618 	0.0226999182256
0.619 	0.0226789546417
0.62 	0.0226576838426
0.621 	0.0226361059129
0.622 	0.0226142209401
0.623 	0.0225920290145
0.624 	0.0225695302286
0.625 	0.0225467246782
0.626 	0.0225236124613
0.627 	0.0225001936788
0.628 	0.0224764684345
0.629 	0.0224524368347
0.63 	0.0224280989886
0.631 	0.0224034550079
0.632 	0.0223785050074
0.633 	0.0223532491046
0.634 	0.0223276874197
0.635 	0.0223018200758
0.636 	0.0222756471987
0.637 	0.0222491689172
0.638 	0.0222223853628
0.639 	0.02219529667
0.64 	0.0221679029762
0.641 	0.0221402044215
0.642 	0.022112201149
0.643 	0.0220838933049
0.644 	0.022055281038
0.645 	0.0220263645002
0.646 	0.0219971438466
0.647 	0.0219676192349
0.648 	0.021937790826
0.649 	0.0219076587838
0.65 	0.0218772232753
0.651 	0.0218464844702
0.652 	0.0218154425418
0.653 	0.021784097666
0.654 	0.021752450022
0.655 	0.0217204997921
0.656 	0.0216882471618
0.657 	0.0216556923197
0.658 	0.0216228354574
0.659 	0.0215896767698
0.66 	0.0215562164552
0.661 	0.0215224547148
0.662 	0.0214883917533
0.663 	0.0214540277784
0.664 	0.0214193630013
0.665 	0.0213843976364
0.666 	0.0213491319015
0.667 	0.0213135660176
0.668 	0.0212777002092
0.669 	0.021241534704
0.67 	0.0212050697334
0.671 	0.0211683055319
0.672 	0.0211312423377
0.673 	0.0210938803924
0.674 	0.021056219941
0.675 	0.021018261232
0.676 	0.0209800045176
0.677 	0.0209414500536
0.678 	0.020902598099
0.679 	0.0208634489169
0.68 	0.0208240027738
0.681 	0.0207842599398
0.682 	0.0207442206887
0.683 	0.0207038852983
0.684 	0.0206632540498
0.685 	0.0206223272282
0.686 	0.0205811051226
0.687 	0.0205395880255
0.688 	0.0204977762335
0.689 	0.0204556700472
0.69 	0.0204132697707
0.691 	0.0203705757125
0.692 	0.0203275881846
0.693 	0.0202843075035
0.694 	0.0202407339893
0.695 	0.0201968679663
0.696 	0.020152709763
0.697 	0.0201082597118
0.698 	0.0200635181496
0.699 	0.0200184854171
0.7 	0.0199731618594
0.701 	0.0199275478259
0.702 	0.0198816436702
0.703 	0.0198354497502
0.704 	0.0197889664282
0.705 	0.0197421940711
0.706 	0.0196951330497
0.707 	0.0196477837399
0.708 	0.0196001465216
0.709 	0.0195522217794
0.71 	0.0195040099028
0.711 	0.0194555112853
0.712 	0.0194067263256
0.713 	0.0193576554269
0.714 	0.019308298997
0.715 	0.0192586574487
0.716 	0.0192087311996
0.717 	0.019158520672
0.718 	0.0191080262933
0.719 	0.0190572484958
0.72 	0.0190061877166
0.721 	0.0189548443982
0.722 	0.018903218988
0.723 	0.0188513119385
0.724 	0.0187991237074
0.725 	0.0187466547577
0.726 	0.0186939055576
0.727 	0.0186408765809
0.728 	0.0185875683063
0.729 	0.0185339812183
0.73 	0.0184801158069
0.731 	0.0184259725674
0.732 	0.018371552001
0.733 	0.0183168546141
0.734 	0.0182618809194
0.735 	0.0182066314348
0.736 	0.0181511066843
0.737 	0.0180953071979
0.738 	0.0180392335112
0.739 	0.0179828861661
0.74 	0.0179262657104
0.741 	0.0178693726981
0.742 	0.0178122076892
0.743 	0.0177547712501
0.744 	0.0176970639537
0.745 	0.0176390863789
0.746 	0.0175808391112
0.747 	0.0175223227427
0.748 	0.0174635378721
0.749 	0.0174044851046
0.75 	0.0173451650521
0.751 	0.0172855783336
0.752 	0.0172257255746
0.753 	0.0171656074079
0.754 	0.017105224473
0.755 	0.0170445774168
0.756 	0.0169836668931
0.757 	0.0169224935632
0.758 	0.0168610580957
0.759 	0.0167993611664
0.76 	0.016737403459
0.761 	0.0166751856645
0.762 	0.0166127084817
0.763 	0.0165499726172
0.764 	0.0164869787854
0.765 	0.0164237277088
0.766 	0.0163602201177
0.767 	0.0162964567508
0.768 	0.016232438355
0.769 	0.0161681656855
0.77 	0.016103639506
0.771 	0.0160388605886
0.772 	0.0159738297142
0.773 	0.0159085476725
0.774 	0.0158430152619
0.775 	0.01577723329
0.776 	0.0157112025734
0.777 	0.0156449239378
0.778 	0.0155783982183
0.779 	0.0155116262596
0.78 	0.0154446089158
0.781 	0.0153773470506
0.782 	0.0153098415377
0.783 	0.0152420932607
0.784 	0.0151741031133
0.785 	0.0151058719991
0.786 	0.0150374008326
0.787 	0.0149686905382
0.788 	0.0148997420513
0.789 	0.014830556318
0.79 	0.0147611342951
0.791 	0.0146914769506
0.792 	0.0146215852638
0.793 	0.0145514602252
0.794 	0.0144811028369
0.795 	0.0144105141125
0.796 	0.0143396950778
0.797 	0.0142686467703
0.798 	0.0141973702398
0.799 	0.0141258665483
0.8 	0.0140541367705
0.801 	0.0139821819938
0.802 	0.0139100033185
0.803 	0.0138376018578
0.804 	0.0137649787383
0.805 	0.0136921351001
0.806 	0.0136190720969
0.807 	0.0135457908963
0.808 	0.01347229268
0.809 	0.0133985786439
0.81 	0.0133246499986
0.811 	0.0132505079692
0.812 	0.0131761537959
0.813 	0.0131015887341
0.814 	0.0130268140545
0.815 	0.0129518310435
0.816 	0.0128766410035
0.817 	0.012801245253
0.818 	0.012725645127
0.819 	0.0126498419771
0.82 	0.0125738371718
0.821 	0.012497632097
0.822 	0.0124212281559
0.823 	0.0123446267698
0.824 	0.0122678293777
0.825 	0.0121908374373
0.826 	0.0121136524249
0.827 	0.0120362758358
0.828 	0.0119587091847
0.829 	0.0118809540059
0.83 	0.0118030118537
0.831 	0.0117248843028
0.832 	0.0116465729485
0.833 	0.0115680794075
0.834 	0.0114894053174
0.835 	0.0114105523381
0.836 	0.0113315221515
0.837 	0.011252316462
0.838 	0.0111729369973
0.839 	0.0110933855083
0.84 	0.0110136637699
0.841 	0.0109337735811
0.842 	0.0108537167659
0.843 	0.0107734951733
0.844 	0.0106931106783
0.845 	0.0106125651817
0.846 	0.0105318606112
0.847 	0.0104509989217
